timestamp,ppg
1561758049815,4200325.0
1561758049866,4200248.0
1561758049917,4200263.0
1561758049968,4200234.0
1561758050019,4200251.0
1561758050070,4200377.0
1561758050122,4200342.0
1561758050173,4200386.0
1561758050225,4200360.0
1561758050275,4200339.0
1561758050325,4200321.0
1561758050377,4200332.0
1561758050428,4200275.0
1561758050480,4200388.0
1561758050530,4200335.0
1561758050582,4200343.0
1561758050632,4200372.0
1561758050683,4200323.0
1561758050734,4200336.0
1561758050786,4200288.0
1561758050836,4200315.0
1561758050888,4200368.0
1561758050939,4200321.0
1561758050990,4200331.0
1561758051041,4200297.0
1561758051092,4200352.0
1561758051145,4200277.0
1561758051194,4200317.0
1561758051245,4200340.0
1561758051296,4200274.0
1561758051347,4200305.0
1561758051398,4200294.0
1561758051449,4200351.0
1561758051500,4200279.0
1561758051551,4200347.0
1561758051602,4200279.0
1561758051653,4200255.0
1561758051705,4200308.0
1561758051756,4200308.0
1561758051807,4200347.0
1561758051857,4200318.0
1561758051909,4200279.0
1561758051960,4200314.0
1561758052011,4200308.0
1561758052061,4200409.0
1561758052114,4200272.0
1561758052164,4200261.0
1561758052215,4200319.0
1561758052267,4200274.0
1561758052318,4200321.0
1561758052368,4200304.0
1561758052419,4200285.0
1561758052471,4200497.0
1561758052522,4200281.0
1561758052573,4200285.0
1561758052624,4200364.0
1561758052675,4200381.0
1561758052726,4200261.0
1561758052777,4200363.0
1561758052828,4200367.0
1561758052879,4200347.0
1561758052930,4200272.0
1561758052981,4200368.0
1561758053033,4200263.0
1561758053083,4200271.0
1561758053134,4200294.0
1561758053186,4200348.0
1561758053236,4200261.0
1561758053288,4200340.0
1561758053339,4200248.0
1561758053390,4200247.0
1561758053441,4200386.0
1561758053492,4200417.0
1561758053543,4200294.0
1561758053594,4200265.0
1561758053645,4200369.0
1561758053696,4200353.0
1561758053747,4200277.0
1561758053798,4200314.0
1561758053849,4200288.0
1561758053900,4200318.0
1561758053951,4200353.0
1561758054002,4200305.0
1561758054053,4200150.0
1561758054105,4200261.0
1561758054156,4200264.0
1561758054207,4200248.0
1561758054258,4200288.0
1561758054309,4200271.0
1561758054360,4200319.0
1561758054411,4200187.0
1561758054463,4200315.0
1561758054513,4200292.0
1561758054565,4200304.0
1561758054615,4200270.0
1561758054666,4200280.0
1561758054717,4200291.0
1561758054768,4200291.0
1561758054819,4200306.0
1561758054871,4200348.0
1561758054922,4200263.0
1561758054973,4200323.0
1561758055024,4200227.0
1561758055075,4200338.0
1561758055125,4200321.0
1561758055177,4200325.0
1561758055228,4200326.0
1561758055279,4200330.0
1561758055331,4200365.0
1561758055381,4200388.0
1561758055432,4200439.0
1561758055484,4200360.0
1561758055534,4200368.0
1561758055585,4200382.0
1561758055636,4200335.0
1561758055688,4200357.0
1561758055739,4200323.0
1561758055790,4200308.0
1561758055841,4200305.0
1561758055892,4200319.0
1561758055943,4200267.0
1561758055994,4200327.0
1561758056044,4200380.0
1561758056097,4200284.0
1561758056147,4200288.0
1561758056198,4200322.0
1561758056249,4200291.0
1561758056300,4200356.0
1561758056351,4200335.0
1561758056403,4200306.0
1561758056455,4200399.0
1561758056505,4200353.0
1561758056556,4200258.0
1561758056607,4200298.0
1561758056658,4200283.0
1561758056709,4200268.0
1561758056760,4200260.0
1561758056811,4200274.0
1561758056863,4200281.0
1561758056914,4200274.0
1561758056964,4200292.0
1561758057016,4200389.0
1561758057066,4200314.0
1561758057117,4200292.0
1561758057168,4200443.0
1561758057219,4200287.0
1561758057271,4200336.0
1561758057322,4200390.0
1561758057374,4200189.0
1561758057424,4200315.0
1561758057475,4200308.0
1561758057526,4200392.0
1561758057577,4200436.0
1561758057628,4200371.0
1561758057679,4200302.0
1561758057731,4200392.0
1561758057782,4200283.0
1561758057833,4200317.0
1561758057883,4200342.0
1561758057935,4200349.0
1561758057985,4200284.0
1561758058036,4200339.0
1561758058088,4200332.0
1561758058139,4200357.0
1561758058190,4200326.0
1561758058241,4200356.0
1561758058292,4200377.0
1561758058343,4200334.0
1561758058394,4200376.0
1561758058446,4200438.0
1561758058496,4200277.0
1561758058548,4200297.0
1561758058598,4200302.0
1561758058649,4200409.0
1561758058700,4200319.0
1561758058752,4200353.0
1561758058802,4200434.0
1561758058854,4200360.0
1561758058905,4200298.0
1561758058956,4200314.0
1561758059007,4200291.0
1561758059058,4200390.0
1561758059109,4200267.0
1561758059160,4200344.0
1561758059211,4200422.0
1561758059263,4200335.0
1561758059315,4200403.0
1561758059365,4200270.0
1561758059415,4200280.0
1561758059467,4200275.0
1561758059517,4200431.0
1561758059569,4200367.0
1561758059619,4200406.0
1561758059671,4200304.0
1561758059722,4200184.0
1561758059773,4200312.0
1561758059824,4200323.0
1561758059875,4200347.0
1561758059926,4200243.0
1561758059977,4200285.0
1561758060028,4200274.0
1561758060080,4200268.0
1561758060130,4200243.0
1561758060182,4200343.0
1561758060233,4200274.0
1561758060284,4200251.0
1561758060349,4200248.0
1561758060385,4200357.0
1561758060437,4200297.0
1561758060488,4200312.0
1561758060539,4200327.0
1561758060590,4200287.0
1561758060641,4200365.0
1561758060692,4200318.0
1561758060743,4200298.0
1561758060794,4200319.0
1561758060846,4200347.0
1561758060897,4200373.0
1561758060947,4200264.0
1561758060999,4200246.0
1561758061049,4200368.0
1561758061101,4200418.0
1561758061152,4200336.0
1561758061203,4200272.0
1561758061254,4200298.0
1561758061305,4200281.0
1561758061356,4200418.0
1561758061407,4200347.0
1561758061458,4200327.0
1561758061509,4200332.0
1561758061560,4200386.0
1561758061611,4200296.0
1561758061662,4200367.0
1561758061714,4200267.0
1561758061765,4200302.0
1561758061816,4200284.0
1561758061866,4200230.0
1561758061918,4200410.0
1561758061968,4200392.0
1561758062019,4200363.0
1561758062071,4200330.0
1561758062122,4200319.0
1561758062173,4200283.0
1561758062224,4200287.0
1561758062275,4200318.0
1561758062326,4200343.0
1561758062377,4200368.0
1561758062429,4200360.0
1561758062480,4200336.0
1561758062531,4200304.0
1561758062581,4200305.0
1561758062633,4200297.0
1561758062684,4200390.0
1561758062735,4200261.0
1561758062785,4200380.0
1561758062837,4200317.0
1561758062888,4200359.0
1561758062939,4200340.0
1561758062990,4200388.0
1561758063041,4200360.0
1561758063092,4200373.0
1561758063143,4200297.0
1561758063194,4200386.0
1561758063246,4200275.0
1561758063297,4200384.0
1561758063348,4200312.0
1561758063399,4200308.0
1561758063450,4200319.0
1561758063500,4200270.0
1561758063552,4200298.0
1561758063603,4200288.0
1561758063654,4200308.0
1561758063705,4200403.0
1561758063756,4200277.0
1561758063807,4200353.0
1561758063858,4200261.0
1561758063909,4200270.0
1561758063960,4200301.0
1561758064011,4200340.0
1561758064063,4200386.0
1561758064114,4200247.0
1561758064165,4200381.0
1561758064216,4200393.0
1561758064267,4200318.0
1561758064317,4200274.0
1561758064369,4200319.0
1561758064420,4200248.0
1561758064472,4200385.0
1561758064524,4200318.0
1561758064574,4200265.0
1561758064624,4200384.0
1561758064675,4200371.0
1561758064726,4200251.0
1561758064778,4200367.0
1561758064829,4200414.0
1561758064880,4200385.0
1561758064930,4200385.0
1561758064982,4200398.0
1561758065033,4200357.0
1561758065084,4200317.0
1561758065135,4200315.0
1561758065186,4200369.0
1561758065237,4200226.0
1561758065289,4200271.0
1561758065339,4200274.0
1561758065390,4200322.0
1561758065441,4200344.0
1561758065493,4200291.0
1561758065545,4200344.0
1561758065594,4200252.0
1561758065646,4200304.0
1561758065697,4200229.0
1561758065748,4200301.0
1561758065799,4200406.0
1561758065850,4200352.0
1561758065901,4200340.0
1561758065951,4200304.0
1561758066003,4200308.0
1561758066054,4200349.0
1561758066106,4200406.0
1561758066156,4200294.0
1561758066207,4200271.0
1561758066258,4200325.0
1561758066309,4200323.0
1561758066360,4200418.0
1561758066412,4200418.0
1561758066463,4200331.0
1561758066514,4200359.0
1561758066565,4200309.0
1561758066616,4200306.0
1561758066667,4200318.0
1561758066718,4200267.0
1561758066768,4200321.0
1561758066821,4200409.0
1561758066871,4200347.0
1561758066923,4200260.0
1561758066973,4200298.0
1561758067024,4200403.0
1561758067075,4200408.0
1561758067126,4200353.0
1561758067177,4200340.0
1561758067229,4200323.0
1561758067280,4200360.0
1561758067331,4200412.0
1561758067382,4200314.0
1561758067433,4200327.0
1561758067485,4200319.0
1561758067535,4200227.0
1561758067586,4200390.0
1561758067638,4200340.0
1561758067688,4200344.0
1561758067740,4200327.0
1561758067790,4200388.0
1561758067841,4200306.0
1561758067892,4200305.0
1561758067943,4200312.0
1561758067994,4200301.0
1561758068046,4200284.0
1561758068097,4200343.0
1561758068148,4200409.0
1561758068199,4200291.0
1561758068250,4200336.0
1561758068301,4200389.0
1561758068352,4200351.0
1561758068403,4200372.0
1561758068455,4200406.0
1561758068506,4200294.0
1561758068557,4200326.0
1561758068607,4200247.0
1561758068659,4200250.0
1561758068709,4200315.0
1561758068760,4200298.0
1561758068812,4200263.0
1561758068863,4200309.0
1561758068914,4200318.0
1561758068965,4200365.0
1561758069016,4200351.0
1561758069067,4200369.0
1561758069118,4200353.0
1561758069169,4200280.0
1561758069220,4200325.0
1561758069272,4200349.0
1561758069322,4200340.0
1561758069374,4200348.0
1561758069424,4200460.0
1561758069475,4200369.0
1561758069526,4200326.0
1561758069577,4200343.0
1561758069629,4200399.0
1561758069680,4200359.0
1561758069731,4200281.0
1561758069782,4200415.0
1561758069833,4200365.0
1561758069884,4200401.0
1561758069935,4200349.0
1561758069986,4200348.0
1561758070038,4200414.0
1561758070089,4200334.0
1561758070139,4200381.0
1561758070191,4200297.0
1561758070241,4200272.0
1561758070293,4200274.0
1561758070343,4200268.0
1561758070395,4200327.0
1561758070446,4200265.0
1561758070498,4200375.0
1561758070548,4200364.0
1561758070599,4200364.0
1561758070650,4200254.0
1561758070701,4200372.0
1561758070752,4200315.0
1561758070804,4200406.0
1561758070854,4200451.0
1561758070906,4200392.0
1561758070957,4200348.0
1561758071008,4200368.0
1561758071058,4200376.0
1561758071110,4200246.0
1561758071160,4200371.0
1561758071212,4200351.0
1561758071265,4200394.0
1561758071314,4200356.0
1561758071365,4200376.0
1561758071416,4200331.0
1561758071467,4200402.0
1561758071518,4200306.0
1561758071569,4200304.0
1561758071621,4200322.0
1561758071671,4200355.0
1561758071723,4200246.0
1561758071773,4200352.0
1561758071825,4200279.0
1561758071875,4200375.0
1561758071927,4200330.0
1561758071977,4200435.0
1561758072029,4200397.0
1561758072080,4200434.0
1561758072131,4200373.0
1561758072182,4200427.0
1561758072233,4200335.0
1561758072284,4200347.0
1561758072335,4200322.0
1561758072386,4200258.0
1561758072438,4200372.0
1561758072489,4200343.0
1561758072540,4200221.0
1561758072590,4200342.0
1561758072642,4200326.0
1561758072694,4200363.0
1561758072744,4200272.0
1561758072795,4200334.0
1561758072846,4200373.0
1561758072897,4200330.0
1561758072948,4200247.0
1561758072999,4200327.0
1561758073050,4200308.0
1561758073101,4200371.0
1561758073152,4200255.0
1561758073204,4200254.0
1561758073255,4200287.0
1561758073305,4200298.0
1561758073357,4200322.0
1561758073408,4200351.0
1561758073459,4200349.0
1561758073509,4200321.0
1561758073561,4200288.0
1561758073612,4200308.0
1561758073663,4200184.0
1561758073714,4200318.0
1561758073765,4200261.0
1561758073816,4200267.0
1561758073867,4200343.0
1561758073918,4200251.0
1561758073969,4200305.0
1561758074021,4200318.0
1561758074072,4200394.0
1561758074122,4200274.0
1561758074174,4200188.0
1561758074224,4200373.0
1561758074276,4200271.0
1561758074327,4200309.0
1561758074378,4200296.0
1561758074429,4200363.0
1561758074480,4200300.0
1561758074531,4200277.0
1561758074582,4200233.0
1561758074633,4200251.0
1561758074684,4200288.0
1561758074735,4200238.0
1561758074787,4200356.0
1561758074837,4200294.0
1561758074889,4200418.0
1561758074940,4200291.0
1561758074991,4200356.0
1561758075041,4200406.0
1561758075093,4200352.0
1561758075143,4200280.0
1561758075195,4200429.0
1561758075246,4200263.0
1561758075297,4200265.0
1561758075348,4200375.0
1561758075399,4200421.0
1561758075450,4200367.0
1561758075501,4200340.0
1561758075552,4200326.0
1561758075604,4200321.0
1561758075655,4200363.0
1561758075706,4200414.0
1561758075757,4200323.0
1561758075808,4200393.0
1561758075859,4200351.0
1561758075910,4200392.0
1561758075960,4200312.0
1561758076013,4200352.0
1561758076063,4200312.0
1561758076114,4200421.0
1561758076165,4200332.0
1561758076216,4200304.0
1561758076267,4200363.0
1561758076318,4200412.0
1561758076370,4200318.0
1561758076421,4200246.0
1561758076472,4200226.0
1561758076523,4200300.0
1561758076573,4200206.0
1561758076625,4200248.0
1561758076675,4200314.0
1561758076727,4200360.0
1561758076779,4200359.0
1561758076829,4200369.0
1561758076880,4200332.0
1561758076931,4200325.0
1561758076982,4200390.0
1561758077033,4200342.0
1561758077084,4200336.0
1561758077135,4200283.0
1561758077187,4200291.0
1561758077238,4200326.0
1561758077288,4200277.0
1561758077340,4200284.0
1561758077391,4200343.0
1561758077442,4200349.0
1561758077492,4200339.0
1561758077544,4200418.0
1561758077595,4200492.0
1561758077646,4200359.0
1561758077697,4200418.0
1561758077748,4200367.0
1561758077799,4200272.0
1561758077850,4200323.0
1561758077901,4200377.0
1561758077952,4200335.0
1561758078004,4200386.0
1561758078055,4200297.0
1561758078106,4200292.0
1561758078157,4200392.0
1561758078207,4200364.0
1561758078259,4200275.0
1561758078310,4200399.0
1561758078362,4200393.0
1561758078412,4200334.0
1561758078464,4200321.0
1561758078514,4200336.0
1561758078565,4200287.0
1561758078616,4200321.0
1561758078667,4200465.0
1561758078718,4200367.0
1561758078770,4200419.0
1561758078821,4200380.0
1561758078872,4200449.0
1561758078923,4200390.0
1561758078974,4200359.0
1561758079024,4200272.0
1561758079076,4200364.0
1561758079126,4200325.0
1561758079178,4200291.0
1561758079229,4200255.0
1561758079280,4200343.0
1561758079331,4200317.0
1561758079383,4200291.0
1561758079433,4200403.0
1561758079484,4200327.0
1561758079535,4200287.0
1561758079587,4200288.0
1561758079638,4200248.0
1561758079689,4200368.0
1561758079740,4200302.0
1561758079791,4200406.0
1561758079842,4200331.0
1561758079893,4200339.0
1561758079943,4200281.0
1561758079996,4200335.0
1561758080046,4200384.0
1561758080097,4200373.0
1561758080148,4200327.0
1561758080199,4200308.0
1561758080250,4200335.0
1561758080303,4200426.0
1561758080353,4200365.0
1561758080404,4200356.0
