timestamp,ppg
1561757590223,4197569.0
1561757590274,4197298.0
1561757590325,4197970.0
1561757590376,4198772.0
1561757590428,4200131.0
1561757590479,4200134.0
1561757590530,4200160.0
1561757590581,4200211.0
1561757590632,4200287.0
1561757590683,4200150.0
1561757590734,4200093.0
1561757590785,4200130.0
1561757590836,4200189.0
1561757590887,4200196.0
1561757590938,4200065.0
1561757590989,4197531.0
1561757591040,4196123.0
1561757591091,4196252.0
1561757591142,4197452.0
1561757591193,4198215.0
1561757591245,4198311.0
1561757591296,4198193.0
1561757591347,4197977.0
1561757591398,4197961.0
1561757591449,4198661.0
1561757591500,4199372.0
1561757591551,4200090.0
1561757591602,4200098.0
1561757591655,4200107.0
1561757591704,4200183.0
1561757591755,4200180.0
1561757591806,4200101.0
1561757591857,4199743.0
1561757591908,4192869.0
1561757591959,4187776.0
1561757592010,4184808.0
1561757592062,4183404.0
1561757592113,4183260.0
1561757592164,4184168.0
1561757592215,4184754.0
1561757592265,4184775.0
1561757592317,4184584.0
1561757592368,4184851.0
1561757592420,4185816.0
1561757592470,4186709.0
1561757592522,4187868.0
1561757592572,4189429.0
1561757592623,4191015.0
1561757592674,4192662.0
1561757592725,4194136.0
1561757592776,4195095.0
1561757592828,4191127.0
1561757592879,4185019.0
1561757592930,4180252.0
1561757592981,4177273.0
1561757593032,4176171.0
1561757593083,4176179.0
1561757593134,4177322.0
1561757593184,4178129.0
1561757593236,4178498.0
1561757593287,4178614.0
1561757593338,4178792.0
1561757593389,4179214.0
1561757593440,4180070.0
1561757593491,4181150.0
1561757593543,4182454.0
1561757593595,4184313.0
1561757593645,4185893.0
1561757593696,4187872.0
1561757593747,4189553.0
1561757593798,4191153.0
1561757593849,4189074.0
1561757593900,4184284.0
1561757593951,4179700.0
1561757594001,4177075.0
1561757594054,4176149.0
1561757594104,4176146.0
1561757594155,4177379.0
1561757594206,4178779.0
1561757594257,4180046.0
1561757594308,4180630.0
1561757594360,4181273.0
1561757594411,4183109.0
1561757594462,4184595.0
1561757594513,4186287.0
1561757594564,4188320.0
1561757594615,4190207.0
1561757594666,4192189.0
1561757594717,4194059.0
1561757594768,4194592.0
1561757594819,4190986.0
1561757594871,4186041.0
1561757594921,4182918.0
1561757594973,4180967.0
1561757595023,4180260.0
1561757595074,4180667.0
1561757595125,4181753.0
1561757595176,4182156.0
1561757595228,4182725.0
1561757595279,4182917.0
1561757595330,4183113.0
1561757595381,4183271.0
1561757595432,4184210.0
1561757595483,4184938.0
1561757595534,4186070.0
1561757595585,4187353.0
1561757595636,4188670.0
1561757595687,4189522.0
1561757595739,4186587.0
1561757595789,4180822.0
1561757595840,4175960.0
1561757595891,4172578.0
1561757595942,4170314.0
1561757595993,4169573.0
1561757596045,4169810.0
1561757596096,4170458.0
1561757596147,4170379.0
1561757596198,4170413.0
1561757596248,4170558.0
1561757596300,4170632.0
1561757596352,4170996.0
1561757596403,4172823.0
1561757596453,4174308.0
1561757596505,4175664.0
1561757596555,4177064.0
1561757596606,4177340.0
1561757596657,4173319.0
1561757596708,4167627.0
1561757596759,4162763.0
1561757596811,4159676.0
1561757596862,4157610.0
1561757596913,4156846.0
1561757596964,4157405.0
1561757597015,4157550.0
1561757597066,4157503.0
1561757597117,4157434.0
1561757597167,4157613.0
1561757597219,4158041.0
1561757597270,4158863.0
1561757597321,4159931.0
1561757597372,4161556.0
1561757597424,4163524.0
1561757597474,4165248.0
1561757597525,4167094.0
1561757597576,4168322.0
1561757597628,4165247.0
1561757597679,4159877.0
1561757597730,4155233.0
1561757597781,4152184.0
1561757597832,4150550.0
1561757597883,4150213.0
1561757597934,4151028.0
1561757597984,4151879.0
1561757598037,4152076.0
1561757598087,4152676.0
1561757598138,4152786.0
1561757598189,4153550.0
1561757598240,4154536.0
1561757598291,4155680.0
1561757598342,4157415.0
1561757598394,4161109.0
1561757598445,4162809.0
1561757598496,4163254.0
1561757598547,4158849.0
1561757598597,4153014.0
1561757598649,4148782.0
1561757598699,4145881.0
1561757598751,4144473.0
1561757598804,4144507.0
1561757598854,4145437.0
1561757598904,4145612.0
1561757598955,4145718.0
1561757599006,4145894.0
1561757599057,4145980.0
1561757599108,4146350.0
1561757599159,4147053.0
1561757599211,4148139.0
1561757599262,4149571.0
1561757599313,4150978.0
1561757599364,4152452.0
1561757599415,4153597.0
1561757599466,4150684.0
1561757599516,4144638.0
1561757599568,4139130.0
1561757599619,4135353.0
1561757599670,4132900.0
1561757599721,4132109.0
1561757599772,4132425.0
1561757599825,4133348.0
1561757599874,4133506.0
1561757599925,4133703.0
1561757599976,4134071.0
1561757600028,4134607.0
1561757600079,4135676.0
1561757600129,4136789.0
1561757600181,4138392.0
1561757600232,4140420.0
1561757600283,4142358.0
1561757600334,4144449.0
1561757600386,4145340.0
1561757600436,4140461.0
1561757600487,4135544.0
1561757600538,4131911.0
1561757600589,4129994.0
1561757600640,4129303.0
1561757600691,4130037.0
1561757600742,4131261.0
1561757600794,4132193.0
1561757600845,4132881.0
1561757600896,4134066.0
1561757600947,4135052.0
1561757600998,4136350.0
1561757601048,4138096.0
1561757601100,4140264.0
1561757601150,4142573.0
1561757601202,4145361.0
1561757601253,4147884.0
1561757601304,4150419.0
1561757601355,4152889.0
1561757601406,4152519.0
1561757601457,4148581.0
1561757601508,4144908.0
1561757601559,4142575.0
1561757601611,4141184.0
1561757601661,4141203.0
1561757601713,4142561.0
1561757601765,4144617.0
1561757601815,4145704.0
1561757601866,4147121.0
1561757601917,4148305.0
1561757601967,4149476.0
1561757602020,4150987.0
1561757602070,4152477.0
1561757602121,4154283.0
1561757602172,4156548.0
1561757602223,4158561.0
1561757602274,4160559.0
1561757602325,4162398.0
1561757602377,4158731.0
1561757602428,4157159.0
1561757602479,4154308.0
1561757602530,4151452.0
1561757602581,4150188.0
1561757602632,4150322.0
1561757602682,4151032.0
1561757602734,4151528.0
1561757602786,4152038.0
1561757602837,4152557.0
1561757602887,4152928.0
1561757602939,4153932.0
1561757602989,4155132.0
1561757603040,4156581.0
1561757603091,4158501.0
1561757603142,4160224.0
1561757603194,4162110.0
1561757603245,4163892.0
1561757603296,4163120.0
1561757603347,4158797.0
1561757603398,4154030.0
1561757603449,4150473.0
1561757603499,4148118.0
1561757603551,4147233.0
1561757603602,4147453.0
1561757603653,4148488.0
1561757603704,4149227.0
1561757603755,4150012.0
1561757603806,4150664.0
1561757603857,4151408.0
1561757603908,4152287.0
1561757603959,4153669.0
1561757604011,4155017.0
1561757604062,4156976.0
1561757604113,4158817.0
1561757604164,4161000.0
1561757604215,4162852.0
1561757604266,4164252.0
1561757604317,4161559.0
1561757604369,4152685.0
1561757604419,4149833.0
1561757604471,4148234.0
1561757604521,4147984.0
1561757604572,4148728.0
1561757604623,4149980.0
1561757604674,4150894.0
1561757604725,4151563.0
1561757604777,4152165.0
1561757604828,4153045.0
1561757604879,4154093.0
1561757604930,4155730.0
1561757604981,4157323.0
1561757605031,4159421.0
1561757605083,4161611.0
1561757605133,4163654.0
1561757605186,4165552.0
1561757605237,4166043.0
1561757605287,4162135.0
1561757605338,4157707.0
1561757605390,4154412.0
1561757605440,4152163.0
1561757605491,4151595.0
1561757605542,4152331.0
1561757605594,4153823.0
1561757605645,4155073.0
1561757605696,4156089.0
1561757605747,4156925.0
1561757605798,4158026.0
1561757605849,4159430.0
1561757605900,4160902.0
1561757605951,4162895.0
1561757606003,4164949.0
1561757606053,4167119.0
1561757606104,4169155.0
1561757606155,4170977.0
1561757606206,4169756.0
1561757606257,4165273.0
1561757606308,4160977.0
1561757606360,4156147.0
1561757606411,4155469.0
1561757606462,4155996.0
1561757606513,4156810.0
1561757606564,4157376.0
1561757606615,4157977.0
1561757606666,4158415.0
1561757606717,4158990.0
1561757606768,4159639.0
1561757606820,4160999.0
1561757606870,4162271.0
1561757606921,4164015.0
1561757606972,4165766.0
1561757607023,4167320.0
1561757607074,4167469.0
1561757607125,4163099.0
1561757607177,4157889.0
1561757607228,4153650.0
1561757607279,4150792.0
1561757607330,4149049.0
1561757607381,4149063.0
1561757607432,4149800.0
1561757607483,4150064.0
1561757607534,4150622.0
1561757607585,4151024.0
1561757607636,4151411.0
1561757607688,4152282.0
1561757607738,4153493.0
1561757607789,4154738.0
1561757607840,4156508.0
1561757607891,4158187.0
1561757607942,4160097.0
1561757607994,4161828.0
1561757608045,4162503.0
1561757608096,4158477.0
1561757608147,4153531.0
1561757608197,4149089.0
1561757608249,4146404.0
1561757608300,4145269.0
1561757608352,4146483.0
1561757608402,4147499.0
1561757608454,4148386.0
1561757608504,4149207.0
1561757608555,4149950.0
1561757608606,4151160.0
1561757608657,4152573.0
1561757608708,4154257.0
1561757608760,4156322.0
1561757608811,4158784.0
1561757608862,4161010.0
1561757608913,4163422.0
1561757608964,4165465.0
1561757609015,4166520.0
1561757609066,4163039.0
1561757609116,4158425.0
1561757609168,4155342.0
1561757609219,4153189.0
1561757609270,4152549.0
1561757609321,4153194.0
1561757609372,4154504.0
1561757609423,4155377.0
1561757609474,4156239.0
1561757609525,4156718.0
1561757609577,4157136.0
1561757609628,4157946.0
1561757609681,4159008.0
1561757609729,4160269.0
1561757609781,4161804.0
1561757609832,4163432.0
1561757609883,4165247.0
1561757609935,4167189.0
1561757609985,4168479.0
1561757610036,4166584.0
1561757610087,4161730.0
1561757610138,4157063.0
1561757610200,4154040.0
1561757610240,4155090.0
1561757610291,4156572.0
1561757610343,4160097.0
1561757610394,4160288.0
1561757610445,4160479.0
1561757610496,4160425.0
1561757610546,4160419.0
1561757610598,4160664.0
1561757610648,4161101.0
1561757610700,4162449.0
1561757610751,4163931.0
1561757610803,4165862.0
1561757610853,4167951.0
1561757610904,4169785.0
1561757610955,4171862.0
1561757611006,4171727.0
1561757611057,4167655.0
1561757611108,4162975.0
1561757611160,4159269.0
1561757611211,4156782.0
1561757611261,4155532.0
1561757611313,4155734.0
1561757611364,4156785.0
1561757611415,4157695.0
1561757611465,4158343.0
1561757611517,4159053.0
1561757611568,4159756.0
1561757611619,4160929.0
1561757611670,4162060.0
1561757611721,4163615.0
1561757611772,4165366.0
1561757611823,4167684.0
1561757611874,4169756.0
1561757611925,4172063.0
1561757611977,4174038.0
1561757612028,4175305.0
1561757612079,4173068.0
1561757612130,4168913.0
1561757612180,4165185.0
1561757612232,4162867.0
1561757612283,4161766.0
1561757612334,4163095.0
1561757612386,4164611.0
1561757612436,4165885.0
1561757612487,4167076.0
1561757612538,4167777.0
1561757612589,4169133.0
1561757612640,4170399.0
1561757612691,4172066.0
1561757612743,4174013.0
1561757612794,4176500.0
1561757612845,4178628.0
1561757612896,4180986.0
1561757612947,4183317.0
1561757612997,4183917.0
1561757613049,4180396.0
1561757613099,4176211.0
1561757613151,4173120.0
1561757613202,4170953.0
1561757613254,4170091.0
1561757613304,4170338.0
1561757613355,4171133.0
1561757613406,4171330.0
1561757613457,4171555.0
1561757613508,4172045.0
1561757613560,4172544.0
1561757613610,4172879.0
1561757613662,4173658.0
1561757613712,4174912.0
1561757613764,4176221.0
1561757613815,4177805.0
1561757613866,4178989.0
1561757613916,4179850.0
1561757613968,4176593.0
1561757614019,4170908.0
1561757614070,4165325.0
1561757614121,4161129.0
1561757614172,4158364.0
1561757614223,4157158.0
1561757614274,4157429.0
1561757614326,4157190.0
1561757614377,4157052.0
1561757614428,4156927.0
1561757614479,4157002.0
1561757614529,4157766.0
1561757614581,4158635.0
1561757614631,4159881.0
1561757614683,4161410.0
1561757614734,4163086.0
1561757614785,4164798.0
1561757614836,4166097.0
1561757614887,4163935.0
1561757614938,4158172.0
1561757614989,4152302.0
1561757615040,4148097.0
1561757615091,4145055.0
1561757615144,4143824.0
1561757615194,4144033.0
1561757615245,4144521.0
1561757615296,4144300.0
1561757615347,4144332.0
1561757615398,4144304.0
1561757615448,4144724.0
1561757615500,4145585.0
1561757615551,4146458.0
1561757615602,4148196.0
1561757615653,4150089.0
1561757615704,4152549.0
1561757615755,4154801.0
1561757615806,4157004.0
1561757615857,4159149.0
1561757615908,4158514.0
1561757615960,4154130.0
1561757616011,4148988.0
1561757616062,4145698.0
1561757616113,4143404.0
1561757616165,4142891.0
1561757616215,4143360.0
1561757616266,4144761.0
1561757616318,4145960.0
1561757616368,4146446.0
1561757616420,4147197.0
1561757616470,4148373.0
1561757616521,4149813.0
1561757616572,4151622.0
1561757616623,4153894.0
1561757616674,4156154.0
1561757616726,4158044.0
1561757616777,4160181.0
1561757616828,4161753.0
1561757616879,4159160.0
1561757616930,4154375.0
1561757616980,4150173.0
1561757617032,4147305.0
1561757617082,4145392.0
1561757617134,4145155.0
1561757617185,4145711.0
1561757617236,4146374.0
1561757617287,4146588.0
1561757617338,4147232.0
1561757617389,4147437.0
1561757617440,4147970.0
1561757617491,4148780.0
1561757617543,4149877.0
1561757617594,4151439.0
1561757617645,4153285.0
1561757617695,4155421.0
1561757617747,4157441.0
1561757617798,4159003.0
1561757617849,4157707.0
1561757617899,4153337.0
1561757617951,4148869.0
1561757618002,4145653.0
1561757618053,4143622.0
1561757618104,4142745.0
1561757618155,4143153.0
1561757618206,4144407.0
1561757618257,4144705.0
1561757618309,4146114.0
1561757618360,4147088.0
1561757618411,4148203.0
1561757618462,4149872.0
1561757618512,4151836.0
1561757618564,4154141.0
1561757618614,4156901.0
1561757618666,4159360.0
1561757618717,4162152.0
1561757618769,4164355.0
1561757618819,4163357.0
1561757618870,4159848.0
1561757618921,4156569.0
1561757618972,4154198.0
1561757619023,4152925.0
1561757619074,4153070.0
1561757619126,4154326.0
1561757619177,4156068.0
1561757619228,4157434.0
1561757619279,4158662.0
1561757619330,4159717.0
1561757619381,4160936.0
1561757619431,4162435.0
1561757619483,4164223.0
1561757619534,4166253.0
1561757619585,4168421.0
1561757619636,4170545.0
1561757619688,4172809.0
1561757619738,4174770.0
1561757619789,4175407.0
1561757619840,4171983.0
1561757619891,4167603.0
1561757619943,4164179.0
1561757619994,4161769.0
1561757620044,4160585.0
1561757620096,4160735.0
1561757620147,4161614.0
1561757620198,4162282.0
1561757620249,4162713.0
1561757620300,4163771.0
1561757620351,4164411.0
1561757620403,4165435.0
1561757620453,4166877.0
1561757620504,4168583.0
1561757620555,4170497.0
1561757620606,4172283.0
1561757620657,4173990.0
1561757620709,4175170.0
1561757620760,4172114.0
1561757620811,4167173.0
